lambda(m), Y
1.6e-06, 0.0567522
1.59964e-06, 0.0581325
1.59929e-06, 0.0595507
1.59893e-06, 0.0610071
1.59857e-06, 0.0625022
1.59822e-06, 0.0640363
1.59786e-06, 0.0656096
1.59751e-06, 0.0672227
1.59715e-06, 0.0688756
1.5968e-06, 0.0705688
1.59644e-06, 0.0723024
1.59609e-06, 0.0740766
1.59573e-06, 0.0758918
1.59538e-06, 0.0777479
1.59502e-06, 0.0796452
1.59467e-06, 0.0815838
1.59431e-06, 0.0835638
1.59396e-06, 0.0855852
1.5936e-06, 0.0876481
1.59325e-06, 0.0897524
1.5929e-06, 0.0918982
1.59254e-06, 0.0940853
1.59219e-06, 0.0963137
1.59184e-06, 0.0985834
1.59148e-06, 0.100894
1.59113e-06, 0.103245
1.59078e-06, 0.105638
1.59043e-06, 0.10807
1.59007e-06, 0.110543
1.58972e-06, 0.113055
1.58937e-06, 0.115607
1.58902e-06, 0.118198
1.58867e-06, 0.120828
1.58831e-06, 0.123496
1.58796e-06, 0.126202
1.58761e-06, 0.128945
1.58726e-06, 0.131725
1.58691e-06, 0.134541
1.58656e-06, 0.137393
1.58621e-06, 0.14028
1.58586e-06, 0.143201
1.58551e-06, 0.146156
1.58516e-06, 0.149144
1.58481e-06, 0.152164
1.58446e-06, 0.155215
1.58411e-06, 0.158297
1.58376e-06, 0.161409
1.58341e-06, 0.164549
1.58306e-06, 0.167718
1.58271e-06, 0.170913
1.58236e-06, 0.174135
1.58201e-06, 0.177381
1.58166e-06, 0.180652
1.58131e-06, 0.183946
1.58096e-06, 0.187262
1.58062e-06, 0.190598
1.58027e-06, 0.193954
1.57992e-06, 0.197329
1.57957e-06, 0.200721
1.57923e-06, 0.20413
1.57888e-06, 0.207553
1.57853e-06, 0.21099
1.57818e-06, 0.21444
1.57784e-06, 0.2179
1.57749e-06, 0.221371
1.57714e-06, 0.22485
1.5768e-06, 0.228337
1.57645e-06, 0.231829
1.5761e-06, 0.235326
1.57576e-06, 0.238826
1.57541e-06, 0.242327
1.57507e-06, 0.245829
1.57472e-06, 0.24933
1.57437e-06, 0.252828
1.57403e-06, 0.256322
1.57368e-06, 0.259811
1.57334e-06, 0.263293
1.57299e-06, 0.266766
1.57265e-06, 0.27023
1.5723e-06, 0.273682
1.57196e-06, 0.277121
1.57162e-06, 0.280546
1.57127e-06, 0.283955
1.57093e-06, 0.287346
1.57058e-06, 0.290719
1.57024e-06, 0.294071
1.5699e-06, 0.297401
1.56955e-06, 0.300708
1.56921e-06, 0.303991
1.56887e-06, 0.307246
1.56852e-06, 0.310475
1.56818e-06, 0.313673
1.56784e-06, 0.316841
1.5675e-06, 0.319977
1.56715e-06, 0.323079
1.56681e-06, 0.326147
1.56647e-06, 0.329177
1.56613e-06, 0.33217
1.56579e-06, 0.335124
1.56545e-06, 0.338037
1.5651e-06, 0.340908
1.56476e-06, 0.343736
1.56442e-06, 0.346519
1.56408e-06, 0.349256
1.56374e-06, 0.351946
1.5634e-06, 0.354588
1.56306e-06, 0.35718
1.56272e-06, 0.359721
1.56238e-06, 0.36221
1.56204e-06, 0.364646
1.5617e-06, 0.367028
1.56136e-06, 0.369354
1.56102e-06, 0.371624
1.56068e-06, 0.373836
1.56034e-06, 0.37599
1.56e-06, 0.378084
1.55966e-06, 0.380117
1.55932e-06, 0.38209
1.55898e-06, 0.383999
1.55864e-06, 0.385846
1.55831e-06, 0.387629
1.55797e-06, 0.389347
1.55763e-06, 0.391
1.55729e-06, 0.392586
1.55695e-06, 0.394105
1.55662e-06, 0.395557
1.55628e-06, 0.396941
1.55594e-06, 0.398256
1.5556e-06, 0.399501
1.55527e-06, 0.400677
1.55493e-06, 0.401783
1.55459e-06, 0.402818
1.55426e-06, 0.403782
1.55392e-06, 0.404674
1.55358e-06, 0.405495
1.55325e-06, 0.406244
1.55291e-06, 0.406921
1.55257e-06, 0.407525
1.55224e-06, 0.408057
1.5519e-06, 0.408516
1.55157e-06, 0.408903
1.55123e-06, 0.409216
1.5509e-06, 0.409457
1.55056e-06, 0.409626
1.55023e-06, 0.409721
1.54989e-06, 0.409745
1.54956e-06, 0.409696
1.54922e-06, 0.409574
1.54889e-06, 0.409381
1.54855e-06, 0.409117
1.54822e-06, 0.408781
1.54789e-06, 0.408374
1.54755e-06, 0.407896
1.54722e-06, 0.407348
1.54689e-06, 0.406731
1.54655e-06, 0.406044
1.54622e-06, 0.405289
1.54589e-06, 0.404466
1.54555e-06, 0.403575
1.54522e-06, 0.402617
1.54489e-06, 0.401593
1.54455e-06, 0.400503
1.54422e-06, 0.399349
1.54389e-06, 0.39813
1.54356e-06, 0.396848
1.54323e-06, 0.395504
1.54289e-06, 0.394098
1.54256e-06, 0.392631
1.54223e-06, 0.391104
1.5419e-06, 0.389519
1.54157e-06, 0.387875
1.54124e-06, 0.386174
1.54091e-06, 0.384417
1.54058e-06, 0.382605
1.54024e-06, 0.380739
1.53991e-06, 0.37882
1.53958e-06, 0.37685
1.53925e-06, 0.374828
1.53892e-06, 0.372757
1.53859e-06, 0.370637
1.53826e-06, 0.36847
1.53793e-06, 0.366256
1.5376e-06, 0.363998
1.53728e-06, 0.361696
1.53695e-06, 0.359351
1.53662e-06, 0.356964
1.53629e-06, 0.354538
1.53596e-06, 0.352072
1.53563e-06, 0.349569
1.5353e-06, 0.347029
1.53497e-06, 0.344455
1.53464e-06, 0.341846
1.53432e-06, 0.339205
1.53399e-06, 0.336532
1.53366e-06, 0.333829
1.53333e-06, 0.331098
1.53301e-06, 0.328339
1.53268e-06, 0.325554
1.53235e-06, 0.322744
1.53202e-06, 0.319911
1.5317e-06, 0.317055
1.53137e-06, 0.314178
1.53104e-06, 0.311282
1.53072e-06, 0.308367
1.53039e-06, 0.305435
1.53006e-06, 0.302487
1.52974e-06, 0.299525
1.52941e-06, 0.296549
1.52909e-06, 0.293561
1.52876e-06, 0.290562
1.52843e-06, 0.287553
1.52811e-06, 0.284536
1.52778e-06, 0.281512
1.52746e-06, 0.278482
1.52713e-06, 0.275446
1.52681e-06, 0.272408
1.52648e-06, 0.269366
1.52616e-06, 0.266323
1.52583e-06, 0.26328
1.52551e-06, 0.260238
1.52519e-06, 0.257198
1.52486e-06, 0.254161
1.52454e-06, 0.251127
1.52421e-06, 0.248099
1.52389e-06, 0.245077
1.52357e-06, 0.242062
1.52324e-06, 0.239056
1.52292e-06, 0.236058
1.5226e-06, 0.23307
1.52227e-06, 0.230093
1.52195e-06, 0.227128
1.52163e-06, 0.224176
1.52131e-06, 0.221237
1.52098e-06, 0.218313
1.52066e-06, 0.215403
1.52034e-06, 0.21251
1.52002e-06, 0.209634
1.5197e-06, 0.206775
1.51937e-06, 0.203934
1.51905e-06, 0.201112
1.51873e-06, 0.19831
1.51841e-06, 0.195528
1.51809e-06, 0.192767
1.51777e-06, 0.190027
1.51745e-06, 0.18731
1.51712e-06, 0.184615
1.5168e-06, 0.181943
1.51648e-06, 0.179295
1.51616e-06, 0.176671
1.51584e-06, 0.174071
1.51552e-06, 0.171497
1.5152e-06, 0.168948
1.51488e-06, 0.166425
1.51456e-06, 0.163928
1.51424e-06, 0.161458
1.51392e-06, 0.159014
1.5136e-06, 0.156598
1.51329e-06, 0.154209
1.51297e-06, 0.151848
1.51265e-06, 0.149515
1.51233e-06, 0.14721
1.51201e-06, 0.144934
1.51169e-06, 0.142686
1.51137e-06, 0.140467
1.51105e-06, 0.138276
1.51074e-06, 0.136115
1.51042e-06, 0.133982
1.5101e-06, 0.131879
1.50978e-06, 0.129804
1.50947e-06, 0.127759
1.50915e-06, 0.125744
1.50883e-06, 0.123757
1.50851e-06, 0.121799
1.5082e-06, 0.119871
1.50788e-06, 0.117972
1.50756e-06, 0.116102
1.50725e-06, 0.11426
1.50693e-06, 0.112448
1.50661e-06, 0.110664
1.5063e-06, 0.108909
1.50598e-06, 0.107182
1.50567e-06, 0.105484
1.50535e-06, 0.103814
1.50503e-06, 0.102171
1.50472e-06, 0.100557
1.5044e-06, 0.0989695
1.50409e-06, 0.0974097
1.50377e-06, 0.095877
1.50346e-06, 0.0943711
1.50314e-06, 0.0928918
1.50283e-06, 0.0914388
1.50251e-06, 0.0900119
1.5022e-06, 0.0886108
1.50188e-06, 0.0872352
1.50157e-06, 0.0858848
1.50126e-06, 0.0845592
1.50094e-06, 0.0832583
1.50063e-06, 0.0819816
1.50031e-06, 0.0807289
1.5e-06, 0.0794998


