wavelength(nm), Y
1601.67, -4.9679
1601.56, -4.9679
1601.45, -4.9679
1601.35, -4.9679
1601.24, -4.9679
1601.13, -4.9679
1601.03, -4.9679
1600.92, -4.9679
1600.81, -4.9679
1600.71, -4.9679
1600.6, -4.9679
1600.49, -4.9679
1600.39, -4.9679
1600.28, -4.9679
1600.17, -4.9679
1600.07, -4.9679
1599.96, -4.96591
1599.85, -4.96062
1599.75, -4.95533
1599.64, -4.95004
1599.53, -4.94476
1599.43, -4.93947
1599.32, -4.9342
1599.21, -4.92892
1599.11, -4.92365
1599, -4.91838
1598.9, -4.91312
1598.79, -4.90785
1598.68, -4.90259
1598.58, -4.89734
1598.47, -4.89209
1598.36, -4.88684
1598.26, -4.88159
1598.15, -4.87635
1598.04, -4.87111
1597.94, -4.86587
1597.83, -4.86064
1597.73, -4.85541
1597.62, -4.85018
1597.51, -4.84495
1597.41, -4.83973
1597.3, -4.83451
1597.19, -4.8293
1597.09, -4.82409
1596.98, -4.81888
1596.88, -4.81367
1596.77, -4.80847
1596.66, -4.80327
1596.56, -4.79808
1596.45, -4.79288
1596.35, -4.78769
1596.24, -4.78251
1596.13, -4.77732
1596.03, -4.77214
1595.92, -4.76696
1595.82, -4.76179
1595.71, -4.75662
1595.6, -4.75145
1595.5, -4.74629
1595.39, -4.74112
1595.29, -4.73596
1595.18, -4.73081
1595.07, -4.72565
1594.97, -4.7205
1594.86, -4.71536
1594.76, -4.71021
1594.65, -4.70513
1594.54, -4.70018
1594.44, -4.69523
1594.33, -4.69028
1594.23, -4.68534
1594.12, -4.6804
1594.02, -4.67546
1593.91, -4.67052
1593.8, -4.66559
1593.7, -4.66066
1593.59, -4.65573
1593.49, -4.65081
1593.38, -4.64589
1593.28, -4.64097
1593.17, -4.63605
1593.06, -4.63114
1592.96, -4.62623
1592.85, -4.62132
1592.75, -4.61641
1592.64, -4.61151
1592.54, -4.60661
1592.43, -4.60171
1592.33, -4.59682
1592.22, -4.59193
1592.11, -4.58704
1592.01, -4.58215
1591.9, -4.57727
1591.8, -4.57239
1591.69, -4.56751
1591.59, -4.56264
1591.48, -4.55777
1591.38, -4.5529
1591.27, -4.54803
1591.16, -4.54316
1591.06, -4.5383
1590.95, -4.53345
1590.85, -4.52859
1590.74, -4.52374
1590.64, -4.51889
1590.53, -4.51404
1590.43, -4.50919
1590.32, -4.50435
1590.22, -4.49951
1590.11, -4.49467
1590.01, -4.48984
1589.9, -4.48501
1589.8, -4.48018
1589.69, -4.47535
1589.59, -4.47053
1589.48, -4.46571
1589.38, -4.46094
1589.27, -4.4563
1589.17, -4.45166
1589.06, -4.44703
1588.96, -4.44239
1588.85, -4.43776
1588.74, -4.43314
1588.64, -4.42851
1588.53, -4.42389
1588.43, -4.41927
1588.32, -4.41465
1588.22, -4.41004
1588.11, -4.40543
1588.01, -4.40082
1587.9, -4.39621
1587.8, -4.3916
1587.69, -4.387
1587.59, -4.3824
1587.49, -4.3778
1587.38, -4.37321
1587.28, -4.36861
1587.17, -4.36402
1587.07, -4.35943
1586.96, -4.35485
1586.86, -4.35027
1586.75, -4.34568
1586.65, -4.34111
1586.54, -4.33653
1586.44, -4.33196
1586.33, -4.32739
1586.23, -4.32282
1586.12, -4.31825
1586.02, -4.31369
1585.91, -4.30912
1585.81, -4.30456
1585.7, -4.30001
1585.6, -4.29545
1585.49, -4.2909
1585.39, -4.28635
1585.29, -4.2818
1585.18, -4.27726
1585.08, -4.27272
1584.97, -4.26818
1584.87, -4.26364
1584.76, -4.2591
1584.66, -4.25457
1584.55, -4.25004
1584.45, -4.24551
1584.34, -4.24098
1584.24, -4.23646
1584.14, -4.23198
1584.03, -4.22762
1583.93, -4.22326
1583.82, -4.21891
1583.72, -4.21455
1583.61, -4.2102
1583.51, -4.20586
1583.4, -4.20151
1583.3, -4.19717
1583.2, -4.19283
1583.09, -4.18849
1582.99, -4.18415
1582.88, -4.17982
1582.78, -4.17548
1582.67, -4.17115
1582.57, -4.16682
1582.47, -4.1625
1582.36, -4.15817
1582.26, -4.15385
1582.15, -4.14953
1582.05, -4.14522
1581.95, -4.1409
1581.84, -4.13659
1581.74, -4.13228
1581.63, -4.12797
1581.53, -4.12366
1581.42, -4.11936
1581.32, -4.11505
1581.22, -4.11075
1581.11, -4.10646
1581.01, -4.10216
1580.9, -4.09787
1580.8, -4.09357
1580.7, -4.08928
1580.59, -4.085
1580.49, -4.08071
1580.38, -4.07643
1580.28, -4.07215
1580.18, -4.06787
1580.07, -4.06359
1579.97, -4.05931
1579.86, -4.05504
1579.76, -4.05077
1579.66, -4.0465
1579.55, -4.04224
1579.45, -4.03797
1579.35, -4.03371
1579.24, -4.02945
1579.14, -4.02519
1579.03, -4.02093
1578.93, -4.01671
1578.83, -4.01262
1578.72, -4.00853
1578.62, -4.00445
1578.52, -4.00037
1578.41, -3.99629
1578.31, -3.99221
1578.2, -3.98813
1578.1, -3.98406
1578, -3.97999
1577.89, -3.97592
1577.79, -3.97185
1577.69, -3.96778
1577.58, -3.96372
1577.48, -3.95965
1577.38, -3.95559
1577.27, -3.95153
1577.17, -3.94748
1577.06, -3.94342
1576.96, -3.93937
1576.86, -3.93532
1576.75, -3.93127
1576.65, -3.92722
1576.55, -3.92317
1576.44, -3.91913
1576.34, -3.91509
1576.24, -3.91105
1576.13, -3.90701
1576.03, -3.90297
1575.93, -3.89894
1575.82, -3.8949
1575.72, -3.89087
1575.62, -3.88684
1575.51, -3.88282
1575.41, -3.87879
1575.31, -3.87477
1575.2, -3.87075
1575.1, -3.86673
1575, -3.86271
1574.89, -3.85869
1574.79, -3.85468
1574.69, -3.85067
1574.58, -3.84666
1574.48, -3.84265
1574.38, -3.83864
1574.27, -3.83464
1574.17, -3.83063
1574.07, -3.82663
1573.96, -3.82263
1573.86, -3.81863
1573.76, -3.81466
1573.66, -3.81082
1573.55, -3.80699
1573.45, -3.80317
1573.35, -3.79934
1573.24, -3.79551
1573.14, -3.79169
1573.04, -3.78787
1572.93, -3.78405
1572.83, -3.78023
1572.73, -3.77641
1572.63, -3.77259
1572.52, -3.76878
1572.42, -3.76497
1572.32, -3.76116
1572.21, -3.75735
1572.11, -3.75354
1572.01, -3.74974
1571.91, -3.74593
1571.8, -3.74213
1571.7, -3.73833
1571.6, -3.73453
1571.49, -3.73073
1571.39, -3.72694
1571.29, -3.72315
1571.19, -3.71935
1571.08, -3.71556
1570.98, -3.71177
1570.88, -3.70799
1570.77, -3.7042
1570.67, -3.70042
1570.57, -3.69664
1570.47, -3.69285
1570.36, -3.68908
1570.26, -3.6853
1570.16, -3.68152
1570.06, -3.67775
1569.95, -3.67398
1569.85, -3.67021
1569.75, -3.66644
1569.65, -3.66267
1569.54, -3.6589
1569.44, -3.65514
1569.34, -3.65138
1569.24, -3.64762
1569.13, -3.64386
1569.03, -3.6401
1568.93, -3.63634
1568.83, -3.63259
1568.72, -3.62884
1568.62, -3.62509
1568.52, -3.62151
1568.42, -3.61792
1568.31, -3.61433
1568.21, -3.61075
1568.11, -3.60716
1568.01, -3.60358
1567.9, -3.6
1567.8, -3.59642
1567.7, -3.59285
1567.6, -3.58927
1567.5, -3.5857
1567.39, -3.58213
1567.29, -3.57855
1567.19, -3.57499
1567.09, -3.57142
1566.98, -3.56785
1566.88, -3.56428
1566.78, -3.56072
1566.68, -3.55716
1566.58, -3.5536
1566.47, -3.55004
1566.37, -3.54648
1566.27, -3.54292
1566.17, -3.53937
1566.06, -3.53582
1565.96, -3.53226
1565.86, -3.52871
1565.76, -3.52516
1565.66, -3.52162
1565.55, -3.51807
1565.45, -3.51452
1565.35, -3.51098
1565.25, -3.50744
1565.15, -3.5039
1565.04, -3.50036
1564.94, -3.49682
1564.84, -3.49329
1564.74, -3.48975
1564.64, -3.48622
1564.54, -3.48269
1564.43, -3.47916
1564.33, -3.47563
1564.23, -3.4721
1564.13, -3.46857
1564.03, -3.46505
1563.92, -3.46152
1563.82, -3.458
1563.72, -3.45448
1563.62, -3.45096
1563.52, -3.44745
1563.42, -3.44407
1563.31, -3.44069
1563.21, -3.43732
1563.11, -3.43394
1563.01, -3.43057
1562.91, -3.4272
1562.8, -3.42382
1562.7, -3.42045
1562.6, -3.41709
1562.5, -3.41372
1562.4, -3.41035
1562.3, -3.40699
1562.2, -3.40363
1562.09, -3.40027
1561.99, -3.39691
1561.89, -3.39355
1561.79, -3.39019
1561.69, -3.38683
1561.59, -3.38348
1561.48, -3.38012
1561.38, -3.37677
1561.28, -3.37342
1561.18, -3.37007
1561.08, -3.36672
1560.98, -3.36337
1560.88, -3.36003
1560.77, -3.35668
1560.67, -3.35334
1560.57, -3.35
1560.47, -3.34666
1560.37, -3.34332
1560.27, -3.33998
1560.17, -3.33664
1560.06, -3.33331
1559.96, -3.32997
1559.86, -3.32664
1559.76, -3.32331
1559.66, -3.31997
1559.56, -3.31665
1559.46, -3.31332
1559.36, -3.30999
1559.25, -3.30666
1559.15, -3.30334
1559.05, -3.30002
1558.95, -3.2967
1558.85, -3.29338
1558.75, -3.29006
1558.65, -3.28674
1558.55, -3.28342
1558.45, -3.28011
1558.34, -3.27691
1558.24, -3.27371
1558.14, -3.27052
1558.04, -3.26732
1557.94, -3.26413
1557.84, -3.26094
1557.74, -3.25775
1557.64, -3.25457
1557.54, -3.25138
1557.44, -3.24819
1557.33, -3.24501
1557.23, -3.24183
1557.13, -3.23864
1557.03, -3.23546
1556.93, -3.23228
1556.83, -3.22911
1556.73, -3.22593
1556.63, -3.22275
1556.53, -3.21958
1556.43, -3.2164
1556.33, -3.21323
1556.22, -3.21006
1556.12, -3.20689
1556.02, -3.20372
1555.92, -3.20055
1555.82, -3.19738
1555.72, -3.19422
1555.62, -3.19105
1555.52, -3.18789
1555.42, -3.18473
1555.32, -3.18157
1555.22, -3.17841
1555.12, -3.17525
1555.02, -3.17209
1554.92, -3.16893
1554.81, -3.16578
1554.71, -3.16262
1554.61, -3.15947
1554.51, -3.15632
1554.41, -3.15317
1554.31, -3.15002
1554.21, -3.14687
1554.11, -3.14372
1554.01, -3.14058
1553.91, -3.13743
1553.81, -3.13429
1553.71, -3.13115
1553.61, -3.128
1553.51, -3.12486
1553.41, -3.12172
1553.31, -3.11867
1553.21, -3.11563
1553.11, -3.11259
1553.01, -3.10955
1552.91, -3.10651
1552.81, -3.10347
1552.7, -3.10044
1552.6, -3.0974
1552.5, -3.09437
1552.4, -3.09134
1552.3, -3.0883
1552.2, -3.08527
1552.1, -3.08224
1552, -3.07921
1551.9, -3.07619
1551.8, -3.07316
1551.7, -3.07013
1551.6, -3.06711
1551.5, -3.06408
1551.4, -3.06106
1551.3, -3.05804
1551.2, -3.05502
1551.1, -3.052
1551, -3.04898
1550.9, -3.04597
1550.8, -3.04295
1550.7, -3.03993
1550.6, -3.03692
1550.5, -3.03391
1550.4, -3.03089
1550.3, -3.02788
1550.2, -3.02487
1550.1, -3.02186
1550, -3.01886
1549.9, -3.01585
1549.8, -3.01284
1549.7, -3.00984
1549.6, -3.00683
1549.5, -3.00383
1549.4, -3.00083
1549.3, -2.99783
1549.2, -2.99483
1549.1, -2.99183
1549, -2.98883
1548.9, -2.98584
1548.8, -2.98284
1548.7, -2.97985
1548.6, -2.97685
1548.5, -2.97388
1548.4, -2.97094
1548.3, -2.968
1548.2, -2.96508
1548.1, -2.9622
1548, -2.95932
1547.9, -2.95644
1547.8, -2.95357
1547.7, -2.95069
1547.6, -2.94782
1547.5, -2.94494
1547.4, -2.94207
1547.3, -2.9392
1547.21, -2.93633
1547.11, -2.93346
1547.01, -2.93059
1546.91, -2.92772
1546.81, -2.92486
1546.71, -2.92199
1546.61, -2.91912
1546.51, -2.91626
1546.41, -2.9134
1546.31, -2.91053
1546.21, -2.90767
1546.11, -2.90481
1546.01, -2.90195
1545.91, -2.8991
1545.81, -2.89624
1545.71, -2.89338
1545.61, -2.89053
1545.51, -2.88767
1545.41, -2.88482
1545.31, -2.88196
1545.21, -2.87911
1545.12, -2.87626
1545.02, -2.87341
1544.92, -2.87056
1544.82, -2.86771
1544.72, -2.86487
1544.62, -2.86202
1544.52, -2.85917
1544.42, -2.85633
1544.32, -2.85349
1544.22, -2.85064
1544.12, -2.8478
1544.02, -2.84496
1543.92, -2.84212
1543.82, -2.83928
1543.73, -2.83645
1543.63, -2.83361
1543.53, -2.83077
1543.43, -2.82794
1543.33, -2.82521
1543.23, -2.8225
1543.13, -2.8198
1543.03, -2.81709
1542.93, -2.81439
1542.83, -2.81169
1542.73, -2.80899
1542.64, -2.80628
1542.54, -2.80359
1542.44, -2.80089
1542.34, -2.79819
1542.24, -2.79549
1542.14, -2.7928
1542.04, -2.7901
1541.94, -2.78741
1541.84, -2.78471
1541.74, -2.78202
1541.65, -2.77933
1541.55, -2.77664
1541.45, -2.77394
1541.35, -2.77126
1541.25, -2.76857
1541.15, -2.76588
1541.05, -2.76319
1540.95, -2.76051
1540.85, -2.75782
1540.76, -2.75514
1540.66, -2.75245
1540.56, -2.74977
1540.46, -2.74709
1540.36, -2.74441
1540.26, -2.74173
1540.16, -2.73905
1540.06, -2.73637
1539.97, -2.73369
1539.87, -2.73101
1539.77, -2.72834
1539.67, -2.72566
1539.57, -2.72299
1539.47, -2.72031
1539.37, -2.71764
1539.27, -2.71497
1539.18, -2.71229
1539.08, -2.70962
1538.98, -2.70695
1538.88, -2.70429
1538.78, -2.70162
1538.68, -2.69895
1538.58, -2.69628
1538.49, -2.69362
1538.39, -2.69104
1538.29, -2.68849
1538.19, -2.68594
1538.09, -2.6834
1537.99, -2.68085
1537.9, -2.6783
1537.8, -2.67576
1537.7, -2.67321
1537.6, -2.67067
1537.5, -2.66813
1537.4, -2.66559
1537.3, -2.66304
1537.21, -2.6605
1537.11, -2.65796
1537.01, -2.65543
1536.91, -2.65289
1536.81, -2.65035
1536.71, -2.64781
1536.62, -2.64528
1536.52, -2.64274
1536.42, -2.64021
1536.32, -2.63767
1536.22, -2.63514
1536.13, -2.63261
1536.03, -2.63008
1535.93, -2.62754
1535.83, -2.62501
1535.73, -2.62249
1535.63, -2.61996
1535.54, -2.61743
1535.44, -2.6149
1535.34, -2.61237
1535.24, -2.60985
1535.14, -2.60732
1535.05, -2.6048
1534.95, -2.60228
1534.85, -2.59975
1534.75, -2.59723
1534.65, -2.59471
1534.56, -2.59219
1534.46, -2.58967
1534.36, -2.58715
1534.26, -2.58463
1534.16, -2.58211
1534.07, -2.5796
1533.97, -2.57708
1533.87, -2.57457
1533.77, -2.57205
1533.67, -2.56954
1533.58, -2.56702
1533.48, -2.56459
1533.38, -2.56218
1533.28, -2.55978
1533.18, -2.55738
1533.09, -2.55498
1532.99, -2.55258
1532.89, -2.55018
1532.79, -2.54778
1532.7, -2.54538
1532.6, -2.54298
1532.5, -2.54058
1532.4, -2.53819
1532.3, -2.53579
1532.21, -2.53339
1532.11, -2.531
1532.01, -2.52861
1531.91, -2.52621
1531.82, -2.52382
1531.72, -2.52143
1531.62, -2.51904
1531.52, -2.51665
1531.43, -2.51426
1531.33, -2.51187
1531.23, -2.50948
1531.13, -2.50709
1531.03, -2.5047
1530.94, -2.50231
1530.84, -2.49993
1530.74, -2.49754
1530.64, -2.49516
1530.55, -2.49277
1530.45, -2.49039
1530.35, -2.48801
1530.25, -2.48563
1530.16, -2.48324
1530.06, -2.48086
1529.96, -2.47848
1529.87, -2.4761
1529.77, -2.47372
1529.67, -2.47135
1529.57, -2.46897
1529.48, -2.46659
1529.38, -2.46421
1529.28, -2.46184
1529.18, -2.45946
1529.09, -2.45709
1528.99, -2.45472
1528.89, -2.45234
1528.79, -2.44997
1528.7, -2.4476
1528.6, -2.4453
1528.5, -2.44304
1528.41, -2.44077
1528.31, -2.43851
1528.21, -2.43625
1528.11, -2.43399
1528.02, -2.43173
1527.92, -2.42948
1527.82, -2.42722
1527.72, -2.42496
1527.63, -2.4227
1527.53, -2.42045
1527.43, -2.41819
1527.34, -2.41594
1527.24, -2.41368
1527.14, -2.41143
1527.05, -2.40918
1526.95, -2.40692
1526.85, -2.40467
1526.75, -2.40242
1526.66, -2.40017
1526.56, -2.39792
1526.46, -2.39567
1526.37, -2.39342
1526.27, -2.39117
1526.17, -2.38892
1526.08, -2.38668
1525.98, -2.38443
1525.88, -2.38218
1525.78, -2.37994
1525.69, -2.37769
1525.59, -2.37545
1525.49, -2.3732
1525.4, -2.37096
1525.3, -2.36872
1525.2, -2.36648
1525.11, -2.36423
1525.01, -2.36199
1524.91, -2.35975
1524.82, -2.35751
1524.72, -2.35527
1524.62, -2.35304
1524.53, -2.3508
1524.43, -2.34856
1524.33, -2.34632
1524.24, -2.34409
1524.14, -2.34185
1524.04, -2.33962
1523.95, -2.33738
1523.85, -2.33515
1523.75, -2.33298
1523.66, -2.33084
1523.56, -2.32872
1523.46, -2.32659
1523.37, -2.32446
1523.27, -2.32233
1523.17, -2.3202
1523.08, -2.31808
1522.98, -2.31595
1522.88, -2.31382
1522.79, -2.3117
1522.69, -2.30957
1522.59, -2.30745
1522.5, -2.30532
1522.4, -2.3032
1522.3, -2.30108
1522.21, -2.29896
1522.11, -2.29683
1522.01, -2.29471
1521.92, -2.29259
1521.82, -2.29047
1521.73, -2.28835
1521.63, -2.28623
1521.53, -2.28411
1521.44, -2.282
1521.34, -2.27988
1521.24, -2.27776
1521.15, -2.27564
1521.05, -2.27353
1520.95, -2.27141
1520.86, -2.2693
1520.76, -2.26718
1520.67, -2.26507
1520.57, -2.26296
1520.47, -2.26084
1520.38, -2.25873
1520.28, -2.25662
1520.18, -2.25451
1520.09, -2.2524
1519.99, -2.25028
1519.9, -2.24817
1519.8, -2.24607
1519.7, -2.24396
1519.61, -2.24185
1519.51, -2.23974
1519.42, -2.23763
1519.32, -2.23553
1519.22, -2.23342
1519.13, -2.23131
1519.03, -2.22921
1518.94, -2.22715
1518.84, -2.22512
1518.74, -2.2231
1518.65, -2.22108
1518.55, -2.21906
1518.46, -2.21703
1518.36, -2.21501
1518.26, -2.21299
1518.17, -2.21097
1518.07, -2.20895
1517.98, -2.20693
1517.88, -2.20491
1517.78, -2.20289
1517.69, -2.20088
1517.59, -2.19886
1517.5, -2.19684
1517.4, -2.19483
1517.3, -2.19281
1517.21, -2.19079
1517.11, -2.18878
1517.02, -2.18676
1516.92, -2.18475
1516.83, -2.18274
1516.73, -2.18072
1516.63, -2.17871
1516.54, -2.1767
1516.44, -2.17469
1516.35, -2.17267
1516.25, -2.17066
1516.16, -2.16865
1516.06, -2.16664
1515.96, -2.16463
1515.87, -2.16262
1515.77, -2.16062
1515.68, -2.15861
1515.58, -2.1566
1515.49, -2.15459
1515.39, -2.15259
1515.29, -2.15058
1515.2, -2.14857
1515.1, -2.14657
1515.01, -2.14456
1514.91, -2.14256
1514.82, -2.14056
1514.72, -2.13855
1514.63, -2.13655
1514.53, -2.13455
1514.44, -2.13254
1514.34, -2.13054
1514.24, -2.12854
1514.15, -2.12658
1514.05, -2.12465
1513.96, -2.12273
1513.86, -2.12081
1513.77, -2.11889
1513.67, -2.11697
1513.58, -2.11505
1513.48, -2.11313
1513.39, -2.1112
1513.29, -2.10929
1513.2, -2.10737
1513.1, -2.10545
1513, -2.10353
1512.91, -2.10161
1512.81, -2.09969
1512.72, -2.09778
1512.62, -2.09586
1512.53, -2.09394
1512.43, -2.09203
1512.34, -2.09011
1512.24, -2.0882
1512.15, -2.08628
1512.05, -2.08437
1511.96, -2.08245
1511.86, -2.08054
1511.77, -2.07863
1511.67, -2.07671
1511.58, -2.0748
1511.48, -2.07289
1511.39, -2.07098
1511.29, -2.06907
1511.2, -2.06716
1511.1, -2.06525
1511.01, -2.06334
1510.91, -2.06143
1510.82, -2.05952
1510.72, -2.05761
1510.63, -2.0557
1510.53, -2.0538
1510.44, -2.05189
1510.34, -2.04998
1510.25, -2.04808
1510.15, -2.04617
1510.06, -2.04427
1509.96, -2.04236
1509.87, -2.04046
1509.77, -2.03855
1509.68, -2.03665
1509.58, -2.03474
1509.49, -2.03284
1509.39, -2.03098
1509.3, -2.02916
1509.2, -2.02734
1509.11, -2.02552
1509.01, -2.0237
1508.92, -2.02188
1508.82, -2.02006
1508.73, -2.01825
1508.63, -2.01643
1508.54, -2.01461
1508.44, -2.0128
1508.35, -2.01098
1508.26, -2.00917
1508.16, -2.00735
1508.07, -2.00554
1507.97, -2.00372
1507.88, -2.00191
1507.78, -2.00009
1507.69, -1.99828
1507.59, -1.99647
1507.5, -1.99466
1507.4, -1.99284
1507.31, -1.99103
1507.21, -1.98922
1507.12, -1.98741
1507.03, -1.9856
1506.93, -1.98379
1506.84, -1.98198
1506.74, -1.98017
1506.65, -1.97836
1506.55, -1.97655
1506.46, -1.97474
1506.36, -1.97294
1506.27, -1.97113
1506.18, -1.96932
1506.08, -1.96751
1505.99, -1.96571
1505.89, -1.9639
1505.8, -1.9621
1505.7, -1.96029
1505.61, -1.95849
1505.51, -1.95668
1505.42, -1.95488
1505.33, -1.95307
1505.23, -1.95127
1505.14, -1.94947
1505.04, -1.94767
1504.95, -1.94586
1504.85, -1.94406
1504.76, -1.94226
1504.67, -1.94049
1504.57, -1.93875
1504.48, -1.93702
1504.38, -1.93529
1504.29, -1.93356
1504.19, -1.93183
1504.1, -1.9301
1504.01, -1.92837
1503.91, -1.92665
1503.82, -1.92492
1503.72, -1.92319
1503.63, -1.92146
1503.54, -1.91973
1503.44, -1.91801
1503.35, -1.91628
1503.25, -1.91455
1503.16, -1.91283
1503.07, -1.9111
1502.97, -1.90938
1502.88, -1.90765
1502.78, -1.90593
1502.69, -1.9042
1502.6, -1.90248
1502.5, -1.90076
1502.41, -1.89903
1502.31, -1.89731
1502.22, -1.89559
1502.13, -1.89387
1502.03, -1.89214
1501.94, -1.89042
1501.84, -1.8887
1501.75, -1.88698
1501.66, -1.88526
1601.67, -58.9894
1601.56, -58.9894
1601.45, -58.9894
1601.35, -58.9894
1601.24, -58.9894
1601.13, -58.9894
1601.03, -58.9894
1600.92, -58.9894
1600.81, -58.9894
1600.71, -58.9894
1600.6, -58.9894
1600.49, -58.9894
1600.39, -58.9894
1600.28, -58.9894
1600.17, -58.9894
1600.07, -58.9894
1599.96, -58.9423
1599.85, -58.8179
1599.75, -58.6953
1599.64, -58.5744
1599.53, -58.4551
1599.43, -58.3375
1599.32, -58.2214
1599.21, -58.1069
1599.11, -57.9938
1599, -57.8822
1598.9, -57.772
1598.79, -57.6632
1598.68, -57.5558
1598.58, -57.4496
1598.47, -57.3448
1598.36, -57.2412
1598.26, -57.1388
1598.15, -57.0376
1598.04, -56.9375
1597.94, -56.8386
1597.83, -56.7409
1597.73, -56.6442
1597.62, -56.5485
1597.51, -56.454
1597.41, -56.3604
1597.3, -56.2678
1597.19, -56.1762
1597.09, -56.0856
1596.98, -55.9959
1596.88, -55.9071
1596.77, -55.8192
1596.66, -55.7322
1596.56, -55.6461
1596.45, -55.5608
1596.35, -55.4763
1596.24, -55.3927
1596.13, -55.3098
1596.03, -55.2277
1595.92, -55.1464
1595.82, -55.0659
1595.71, -54.9861
1595.6, -54.907
1595.5, -54.8286
1595.39, -54.7509
1595.29, -54.674
1595.18, -54.5977
1595.07, -54.522
1594.97, -54.447
1594.86, -54.3727
1594.76, -54.299
1594.65, -54.2081
1594.54, -54.0814
1594.44, -53.9565
1594.33, -53.8334
1594.23, -53.712
1594.12, -53.5922
1594.02, -53.4741
1593.91, -53.3576
1593.8, -53.2426
1593.7, -53.1292
1593.59, -53.0172
1593.49, -52.9066
1593.38, -52.7974
1593.28, -52.6896
1593.17, -52.583
1593.06, -52.4778
1592.96, -52.3739
1592.85, -52.2711
1592.75, -52.1696
1592.64, -52.0692
1592.54, -51.97
1592.43, -51.8719
1592.33, -51.7749
1592.22, -51.679
1592.11, -51.5841
1592.01, -51.4903
1591.9, -51.3974
1591.8, -51.3055
1591.69, -51.2146
1591.59, -51.1247
1591.48, -51.0356
1591.38, -50.9475
1591.27, -50.8602
1591.16, -50.7739
1591.06, -50.6883
1590.95, -50.6036
1590.85, -50.5197
1590.74, -50.4367
1590.64, -50.3544
1590.53, -50.2728
1590.43, -50.1921
1590.32, -50.1121
1590.22, -50.0328
1590.11, -49.9542
1590.01, -49.8763
1589.9, -49.7992
1589.8, -49.7227
1589.69, -49.6468
1589.59, -49.5717
1589.48, -49.4971
1589.38, -49.443
1589.27, -49.4423
1589.17, -49.4416
1589.06, -49.4409
1588.96, -49.4402
1588.85, -49.4395
1588.74, -49.4388
1588.64, -49.4381
1588.53, -49.4374
1588.43, -49.4367
